# ®É¶¡ (s)    ¦ì²¾ (m)
0.00 0.000000
0.01 0.000000
0.02 -0.000000
0.03 -0.000001
0.04 -0.000002
0.05 -0.000004
0.06 -0.000007
0.07 -0.000009
0.08 -0.000013
0.09 -0.000017
0.10 -0.000021
0.11 -0.000026
0.12 -0.000031
0.13 -0.000037
0.14 -0.000043
0.15 -0.000050
0.16 -0.000058
0.17 -0.000065
0.18 -0.000074
0.19 -0.000082
0.20 -0.000092
0.21 -0.000101
0.22 -0.000111
0.23 -0.000122
0.24 -0.000133
0.25 -0.000144
0.26 -0.000156
0.27 -0.000168
0.28 -0.000181
0.29 -0.000194
0.30 -0.000208
0.31 -0.000222
0.32 -0.000236
0.33 -0.000251
0.34 -0.000266
0.35 -0.000282
0.36 -0.000297
0.37 -0.000313
0.38 -0.000330
0.39 -0.000346
0.40 -0.000363
0.41 -0.000381
0.42 -0.000399
0.43 -0.000417
0.44 -0.000436
0.45 -0.000455
0.46 -0.000474
0.47 -0.000494
0.48 -0.000514
0.49 -0.000534
0.50 -0.000554
0.51 -0.000574
0.52 -0.000595
0.53 -0.000616
0.54 -0.000637
0.55 -0.000658
0.56 -0.000679
0.57 -0.000701
0.58 -0.000723
0.59 -0.000746
0.60 -0.000768
0.61 -0.000790
0.62 -0.000813
0.63 -0.000836
0.64 -0.000859
0.65 -0.000882
0.66 -0.000905
0.67 -0.000929
0.68 -0.000953
0.69 -0.000976
0.70 -0.001000
0.71 -0.001024
0.72 -0.001048
0.73 -0.001071
0.74 -0.001095
0.75 -0.001118
0.76 -0.001141
0.77 -0.001164
0.78 -0.001187
0.79 -0.001210
0.80 -0.001233
0.81 -0.001257
0.82 -0.001280
0.83 -0.001304
0.84 -0.001327
0.85 -0.001350
0.86 -0.001374
0.87 -0.001397
0.88 -0.001420
0.89 -0.001444
0.90 -0.001467
0.91 -0.001490
0.92 -0.001512
0.93 -0.001534
0.94 -0.001556
0.95 -0.001578
0.96 -0.001599
0.97 -0.001620
0.98 -0.001641
0.99 -0.001663
1.00 -0.001684
1.01 -0.001706
1.02 -0.001727
1.03 -0.001748
1.04 -0.001768
1.05 -0.001789
1.06 -0.001809
1.07 -0.001829
1.08 -0.001849
1.09 -0.001869
1.10 -0.001888
1.11 -0.001908
1.12 -0.001928
1.13 -0.001948
1.14 -0.001968
1.15 -0.001987
1.16 -0.002007
1.17 -0.002026
1.18 -0.002045
1.19 -0.002064
1.20 -0.002082
1.21 -0.002100
1.22 -0.002117
1.23 -0.002133
1.24 -0.002148
1.25 -0.002161
1.26 -0.002173
1.27 -0.002185
1.28 -0.002196
1.29 -0.002207
1.30 -0.002218
1.31 -0.002229
1.32 -0.002239
1.33 -0.002249
1.34 -0.002259
1.35 -0.002268
1.36 -0.002276
1.37 -0.002283
1.38 -0.002290
1.39 -0.002295
1.40 -0.002300
1.41 -0.002303
1.42 -0.002307
1.43 -0.002309
1.44 -0.002311
1.45 -0.002312
1.46 -0.002313
1.47 -0.002315
1.48 -0.002317
1.49 -0.002320
1.50 -0.002323
1.51 -0.002324
1.52 -0.002325
1.53 -0.002326
1.54 -0.002327
1.55 -0.002325
1.56 -0.002323
1.57 -0.002320
1.58 -0.002316
1.59 -0.002312
1.60 -0.002309
1.61 -0.002305
1.62 -0.002301
1.63 -0.002296
1.64 -0.002290
1.65 -0.002282
1.66 -0.002272
1.67 -0.002262
1.68 -0.002250
1.69 -0.002238
1.70 -0.002225
1.71 -0.002211
1.72 -0.002197
1.73 -0.002183
1.74 -0.002168
1.75 -0.002152
1.76 -0.002134
1.77 -0.002116
1.78 -0.002097
1.79 -0.002077
1.80 -0.002058
1.81 -0.002038
1.82 -0.002019
1.83 -0.001999
1.84 -0.001979
1.85 -0.001958
1.86 -0.001935
1.87 -0.001912
1.88 -0.001887
1.89 -0.001862
1.90 -0.001836
1.91 -0.001809
1.92 -0.001782
1.93 -0.001756
1.94 -0.001730
1.95 -0.001703
1.96 -0.001675
1.97 -0.001646
1.98 -0.001615
1.99 -0.001583
2.00 -0.001549
2.01 -0.001514
2.02 -0.001478
2.03 -0.001442
2.04 -0.001407
2.05 -0.001371
2.06 -0.001335
2.07 -0.001298
2.08 -0.001260
2.09 -0.001220
2.10 -0.001180
2.11 -0.001138
2.12 -0.001096
2.13 -0.001054
2.14 -0.001011
2.15 -0.000968
2.16 -0.000925
2.17 -0.000880
2.18 -0.000834
2.19 -0.000787
2.20 -0.000739
2.21 -0.000690
2.22 -0.000641
2.23 -0.000592
2.24 -0.000543
2.25 -0.000494
2.26 -0.000445
2.27 -0.000397
2.28 -0.000348
2.29 -0.000299
2.30 -0.000248
2.31 -0.000195
2.32 -0.000139
2.33 -0.000081
2.34 -0.000021
2.35 0.000040
2.36 0.000101
2.37 0.000163
2.38 0.000224
2.39 0.000285
2.40 0.000347
2.41 0.000408
2.42 0.000468
2.43 0.000528
2.44 0.000589
2.45 0.000650
2.46 0.000712
2.47 0.000776
2.48 0.000840
2.49 0.000904
2.50 0.000967
2.51 0.001029
2.52 0.001090
2.53 0.001151
2.54 0.001212
2.55 0.001273
2.56 0.001336
2.57 0.001401
2.58 0.001470
2.59 0.001542
2.60 0.001617
2.61 0.001695
2.62 0.001776
2.63 0.001859
2.64 0.001944
2.65 0.002030
2.66 0.002116
2.67 0.002200
2.68 0.002282
2.69 0.002363
2.70 0.002441
2.71 0.002518
2.72 0.002591
2.73 0.002661
2.74 0.002729
2.75 0.002799
2.76 0.002873
2.77 0.002951
2.78 0.003034
2.79 0.003121
2.80 0.003211
2.81 0.003302
2.82 0.003394
2.83 0.003484
2.84 0.003575
2.85 0.003666
2.86 0.003761
2.87 0.003858
2.88 0.003958
2.89 0.004063
2.90 0.004172
2.91 0.004288
2.92 0.004409
2.93 0.004534
2.94 0.004662
2.95 0.004794
2.96 0.004929
2.97 0.005067
2.98 0.005208
2.99 0.005349
3.00 0.005490
3.01 0.005628
3.02 0.005761
3.03 0.005890
3.04 0.006017
3.05 0.006146
3.06 0.006281
3.07 0.006423
3.08 0.006568
3.09 0.006715
3.10 0.006863
3.11 0.007013
3.12 0.007166
3.13 0.007325
3.14 0.007489
3.15 0.007659
3.16 0.007836
3.17 0.008018
3.18 0.008205
3.19 0.008396
3.20 0.008590
3.21 0.008788
3.22 0.008989
3.23 0.009191
3.24 0.009391
3.25 0.009587
3.26 0.009781
3.27 0.009976
3.28 0.010171
3.29 0.010366
3.30 0.010560
3.31 0.010751
3.32 0.010942
3.33 0.011134
3.34 0.011329
3.35 0.011528
3.36 0.011731
3.37 0.011936
3.38 0.012143
3.39 0.012348
3.40 0.012553
3.41 0.012761
3.42 0.012975
3.43 0.013197
3.44 0.013428
3.45 0.013668
3.46 0.013914
3.47 0.014167
3.48 0.014425
3.49 0.014685
3.50 0.014943
3.51 0.015193
3.52 0.015436
3.53 0.015671
3.54 0.015900
3.55 0.016124
3.56 0.016345
3.57 0.016563
3.58 0.016778
3.59 0.016990
3.60 0.017200
3.61 0.017410
3.62 0.017623
3.63 0.017840
3.64 0.018063
3.65 0.018292
3.66 0.018527
3.67 0.018763
3.68 0.018996
3.69 0.019221
3.70 0.019436
3.71 0.019641
3.72 0.019839
3.73 0.020036
3.74 0.020237
3.75 0.020444
3.76 0.020657
3.77 0.020877
3.78 0.021100
3.79 0.021328
3.80 0.021558
3.81 0.021788
3.82 0.022009
3.83 0.022211
3.84 0.022387
3.85 0.022535
3.86 0.022664
3.87 0.022784
3.88 0.022907
3.89 0.023040
3.90 0.023187
3.91 0.023347
3.92 0.023515
3.93 0.023688
3.94 0.023864
3.95 0.024039
3.96 0.024210
3.97 0.024375
3.98 0.024531
3.99 0.024679
4.00 0.024822
4.01 0.024964
4.02 0.025110
4.03 0.025260
4.04 0.025415
4.05 0.025575
4.06 0.025737
4.07 0.025900
4.08 0.026061
4.09 0.026215
4.10 0.026356
4.11 0.026478
4.12 0.026574
4.13 0.026643
4.14 0.026693
4.15 0.026733
4.16 0.026774
4.17 0.026823
4.18 0.026888
4.19 0.026974
4.20 0.027078
4.21 0.027196
4.22 0.027321
4.23 0.027445
4.24 0.027568
4.25 0.027688
4.26 0.027804
4.27 0.027912
4.28 0.028007
4.29 0.028084
4.30 0.028143
4.31 0.028185
4.32 0.028212
4.33 0.028221
4.34 0.028210
4.35 0.028178
4.36 0.028128
4.37 0.028067
4.38 0.028009
4.39 0.027966
4.40 0.027949
4.41 0.027960
4.42 0.027997
4.43 0.028051
4.44 0.028108
4.45 0.028150
4.46 0.028159
4.47 0.028123
4.48 0.028034
4.49 0.027889
4.50 0.027690
4.51 0.027441
4.52 0.027153
4.53 0.026842
4.54 0.026523
4.55 0.026214
4.56 0.025929
4.57 0.025684
4.58 0.025490
4.59 0.025352
4.60 0.025270
4.61 0.025235
4.62 0.025235
4.63 0.025260
4.64 0.025303
4.65 0.025359
4.66 0.025420
4.67 0.025471
4.68 0.025492
4.69 0.025463
4.70 0.025360
4.71 0.025165
4.72 0.024864
4.73 0.024451
4.74 0.023929
4.75 0.023310
4.76 0.022605
4.77 0.021829
4.78 0.020991
4.79 0.020099
4.80 0.019155
4.81 0.018157
4.82 0.017094
4.83 0.015957
4.84 0.014748
4.85 0.013481
4.86 0.012176
4.87 0.010856
4.88 0.009532
4.89 0.008209
4.90 0.006886
4.91 0.005560
4.92 0.004234
4.93 0.002913
4.94 0.001603
4.95 0.000304
4.96 -0.000998
4.97 -0.002322
4.98 -0.003689
4.99 -0.005114
5.00 -0.006602
5.01 -0.008150
5.02 -0.009753
5.03 -0.011404
5.04 -0.013084
5.05 -0.014766
5.06 -0.016415
5.07 -0.017994
5.08 -0.019481
5.09 -0.020869
5.10 -0.022172
5.11 -0.023410
5.12 -0.024599
5.13 -0.025745
5.14 -0.026841
5.15 -0.027881
5.16 -0.028861
5.17 -0.029785
5.18 -0.030654
5.19 -0.031470
5.20 -0.032236
5.21 -0.032966
5.22 -0.033680
5.23 -0.034403
5.24 -0.035152
5.25 -0.035940
5.26 -0.036770
5.27 -0.037643
5.28 -0.038559
5.29 -0.039519
5.30 -0.040527
5.31 -0.041581
5.32 -0.042674
5.33 -0.043785
5.34 -0.044891
5.35 -0.045973
5.36 -0.047017
5.37 -0.048016
5.38 -0.048959
5.39 -0.049835
5.40 -0.050638
5.41 -0.051375
5.42 -0.052064
5.43 -0.052731
5.44 -0.053399
5.45 -0.054086
5.46 -0.054798
5.47 -0.055527
5.48 -0.056252
5.49 -0.056946
5.50 -0.057579
5.51 -0.058129
5.52 -0.058586
5.53 -0.058957
5.54 -0.059253
5.55 -0.059489
5.56 -0.059675
5.57 -0.059817
5.58 -0.059920
5.59 -0.059991
5.60 -0.060033
5.61 -0.060046
5.62 -0.060020
5.63 -0.059944
5.64 -0.059803
5.65 -0.059586
5.66 -0.059277
5.67 -0.058861
5.68 -0.058329
5.69 -0.057682
5.70 -0.056931
5.71 -0.056088
5.72 -0.055163
5.73 -0.054161
5.74 -0.053081
5.75 -0.051918
5.76 -0.050668
5.77 -0.049333
5.78 -0.047918
5.79 -0.046438
5.80 -0.044911
5.81 -0.043349
5.82 -0.041755
5.83 -0.040120
5.84 -0.038423
5.85 -0.036632
5.86 -0.034713
5.87 -0.032633
5.88 -0.030368
5.89 -0.027906
5.90 -0.025254
5.91 -0.022432
5.92 -0.019474
5.93 -0.016423
5.94 -0.013326
5.95 -0.010231
5.96 -0.007180
5.97 -0.004213
5.98 -0.001360
5.99 0.001355
6.00 0.003920
6.01 0.006330
6.02 0.008585
6.03 0.010693
6.04 0.012662
6.05 0.014495
6.06 0.016188
6.07 0.017731
6.08 0.019119
6.09 0.020368
6.10 0.021511
6.11 0.022600
6.12 0.023690
6.13 0.024827
6.14 0.026044
6.15 0.027356
6.16 0.028763
6.17 0.030256
6.18 0.031823
6.19 0.033457
6.20 0.035153
6.21 0.036905
6.22 0.038706
6.23 0.040541
6.24 0.042391
6.25 0.044232
6.26 0.046039
6.27 0.047793
6.28 0.049476
6.29 0.051073
6.30 0.052569
6.31 0.053949
6.32 0.055200
6.33 0.056319
6.34 0.057313
6.35 0.058199
6.36 0.058993
6.37 0.059710
6.38 0.060357
6.39 0.060939
6.40 0.061459
6.41 0.061926
6.42 0.062355
6.43 0.062770
6.44 0.063199
6.45 0.063666
6.46 0.064187
6.47 0.064766
6.48 0.065395
6.49 0.066062
6.50 0.066752
6.51 0.067449
6.52 0.068134
6.53 0.068784
6.54 0.069374
6.55 0.069878
6.56 0.070279
6.57 0.070571
6.58 0.070766
6.59 0.070894
6.60 0.070990
6.61 0.071091
6.62 0.071217
6.63 0.071379
6.64 0.071573
6.65 0.071792
6.66 0.072021
6.67 0.072241
6.68 0.072432
6.69 0.072574
6.70 0.072652
6.71 0.072651
6.72 0.072551
6.73 0.072329
6.74 0.071962
6.75 0.071431
6.76 0.070726
6.77 0.069846
6.78 0.068800
6.79 0.067608
6.80 0.066288
6.81 0.064858
6.82 0.063325
6.83 0.061691
6.84 0.059952
6.85 0.058104
6.86 0.056144
6.87 0.054065
6.88 0.051861
6.89 0.049523
6.90 0.047050
6.91 0.044444
6.92 0.041705
6.93 0.038828
6.94 0.035803
6.95 0.032617
6.96 0.029262
6.97 0.025731
6.98 0.022020
6.99 0.018126
7.00 0.014061
7.01 0.009862
7.02 0.005595
7.03 0.001359
7.04 -0.002736
7.05 -0.006581
7.06 -0.010083
7.07 -0.013177
7.08 -0.015827
7.09 -0.018025
7.10 -0.019786
7.11 -0.021144
7.12 -0.022150
7.13 -0.022854
7.14 -0.023304
7.15 -0.023542
7.16 -0.023613
7.17 -0.023575
7.18 -0.023493
7.19 -0.023423
7.20 -0.023406
7.21 -0.023465
7.22 -0.023614
7.23 -0.023857
7.24 -0.024189
7.25 -0.024599
7.26 -0.025076
7.27 -0.025608
7.28 -0.026194
7.29 -0.026844
7.30 -0.027587
7.31 -0.028461
7.32 -0.029504
7.33 -0.030741
7.34 -0.032173
7.35 -0.033785
7.36 -0.035548
7.37 -0.037440
7.38 -0.039446
7.39 -0.041566
7.40 -0.043810
7.41 -0.046190
7.42 -0.048715
7.43 -0.051388
7.44 -0.054198
7.45 -0.057129
7.46 -0.060161
7.47 -0.063280
7.48 -0.066475
7.49 -0.069733
7.50 -0.073036
7.51 -0.076356
7.52 -0.079656
7.53 -0.082892
7.54 -0.086021
7.55 -0.088999
7.56 -0.091795
7.57 -0.094386
7.58 -0.096761
7.59 -0.098913
7.60 -0.100836
7.61 -0.102525
7.62 -0.103977
7.63 -0.105198
7.64 -0.106210
7.65 -0.107052
7.66 -0.107771
7.67 -0.108415
7.68 -0.109024
7.69 -0.109627
7.70 -0.110242
7.71 -0.110876
7.72 -0.111525
7.73 -0.112178
7.74 -0.112826
7.75 -0.113459
7.76 -0.114077
7.77 -0.114679
7.78 -0.115273
7.79 -0.115871
7.80 -0.116493
7.81 -0.117161
7.82 -0.117894
7.83 -0.118694
7.84 -0.119541
7.85 -0.120388
7.86 -0.121177
7.87 -0.121858
7.88 -0.122391
7.89 -0.122741
7.90 -0.122880
7.91 -0.122778
7.92 -0.122413
7.93 -0.121774
7.94 -0.120860
7.95 -0.119672
7.96 -0.118210
7.97 -0.116472
7.98 -0.114454
7.99 -0.112156
8.00 -0.109595
8.01 -0.106811
8.02 -0.103860
8.03 -0.100801
8.04 -0.097681
8.05 -0.094539
8.06 -0.091408
8.07 -0.088324
8.08 -0.085326
8.09 -0.082459
8.10 -0.079766
8.11 -0.077283
8.12 -0.075032
8.13 -0.073015
8.14 -0.071222
8.15 -0.069637
8.16 -0.068250
8.17 -0.067062
8.18 -0.066079
8.19 -0.065313
8.20 -0.064776
8.21 -0.064479
8.22 -0.064427
8.23 -0.064629
8.24 -0.065091
8.25 -0.065818
8.26 -0.066813
8.27 -0.068075
8.28 -0.069593
8.29 -0.071343
8.30 -0.073284
8.31 -0.075366
8.32 -0.077532
8.33 -0.079726
8.34 -0.081892
8.35 -0.083978
8.36 -0.085944
8.37 -0.087756
8.38 -0.089382
8.39 -0.090795
8.40 -0.091979
8.41 -0.092928
8.42 -0.093651
8.43 -0.094165
8.44 -0.094486
8.45 -0.094622
8.46 -0.094577
8.47 -0.094338
8.48 -0.093883
8.49 -0.093187
8.50 -0.092229
8.51 -0.091006
8.52 -0.089531
8.53 -0.087829
8.54 -0.085924
8.55 -0.083838
8.56 -0.081590
8.57 -0.079199
8.58 -0.076685
8.59 -0.074072
8.60 -0.071383
8.61 -0.068636
8.62 -0.065851
8.63 -0.063048
8.64 -0.060251
8.65 -0.057491
8.66 -0.054809
8.67 -0.052252
8.68 -0.049860
8.69 -0.047662
8.70 -0.045675
8.71 -0.043907
8.72 -0.042365
8.73 -0.041046
8.74 -0.039938
8.75 -0.039023
8.76 -0.038273
8.77 -0.037657
8.78 -0.037139
8.79 -0.036682
8.80 -0.036256
8.81 -0.035833
8.82 -0.035393
8.83 -0.034926
8.84 -0.034434
8.85 -0.033934
8.86 -0.033452
8.87 -0.033014
8.88 -0.032638
8.89 -0.032333
8.90 -0.032099
8.91 -0.031930
8.92 -0.031813
8.93 -0.031729
8.94 -0.031661
8.95 -0.031595
8.96 -0.031522
8.97 -0.031444
8.98 -0.031369
8.99 -0.031316
9.00 -0.031307
9.01 -0.031368
9.02 -0.031515
9.03 -0.031758
9.04 -0.032093
9.05 -0.032512
9.06 -0.032992
9.07 -0.033503
9.08 -0.034006
9.09 -0.034461
9.10 -0.034831
9.11 -0.035086
9.12 -0.035196
9.13 -0.035137
9.14 -0.034888
9.15 -0.034438
9.16 -0.033794
9.17 -0.032973
9.18 -0.032001
9.19 -0.030911
9.20 -0.029747
9.21 -0.028552
9.22 -0.027366
9.23 -0.026218
9.24 -0.025120
9.25 -0.024071
9.26 -0.023059
9.27 -0.022054
9.28 -0.021015
9.29 -0.019889
9.30 -0.018616
9.31 -0.017144
9.32 -0.015435
9.33 -0.013464
9.34 -0.011220
9.35 -0.008709
9.36 -0.005944
9.37 -0.002944
9.38 0.000273
9.39 0.003682
9.40 0.007245
9.41 0.010919
9.42 0.014658
9.43 0.018423
9.44 0.022187
9.45 0.025923
9.46 0.029596
9.47 0.033163
9.48 0.036582
9.49 0.039817
9.50 0.042834
9.51 0.045605
9.52 0.048098
9.53 0.050293
9.54 0.052183
9.55 0.053778
9.56 0.055096
9.57 0.056158
9.58 0.056987
9.59 0.057609
9.60 0.058049
9.61 0.058336
9.62 0.058498
9.63 0.058569
9.64 0.058583
9.65 0.058575
9.66 0.058581
9.67 0.058634
9.68 0.058754
9.69 0.058949
9.70 0.059217
9.71 0.059553
9.72 0.059956
9.73 0.060434
9.74 0.061000
9.75 0.061663
9.76 0.062424
9.77 0.063274
9.78 0.064192
9.79 0.065146
9.80 0.066110
9.81 0.067069
9.82 0.068025
9.83 0.068992
9.84 0.069988
9.85 0.071036
9.86 0.072163
9.87 0.073400
9.88 0.074769
9.89 0.076274
9.90 0.077896
9.91 0.079594
9.92 0.081318
9.93 0.083018
9.94 0.084652
9.95 0.086189
9.96 0.087606
9.97 0.088892
9.98 0.090045
9.99 0.091068
10.00 0.091977
10.01 0.092792
10.02 0.093540
10.03 0.094247
10.04 0.094932
10.05 0.095603
10.06 0.096258
10.07 0.096880
10.08 0.097449
10.09 0.097933
10.10 0.098299
10.11 0.098512
10.12 0.098538
10.13 0.098347
10.14 0.097912
10.15 0.097208
10.16 0.096218
10.17 0.094932
10.18 0.093358
10.19 0.091529
10.20 0.089509
10.21 0.087391
10.22 0.085278
10.23 0.083259
10.24 0.081400
10.25 0.079739
10.26 0.078296
10.27 0.077080
10.28 0.076090
10.29 0.075312
10.30 0.074716
10.31 0.074260
10.32 0.073898
10.33 0.073591
10.34 0.073310
10.35 0.073028
10.36 0.072719
10.37 0.072350
10.38 0.071890
10.39 0.071318
10.40 0.070629
10.41 0.069824
10.42 0.068910
10.43 0.067891
10.44 0.066774
10.45 0.065563
10.46 0.064266
10.47 0.062899
10.48 0.061485
10.49 0.060055
10.50 0.058633
10.51 0.057241
10.52 0.055891
10.53 0.054599
10.54 0.053381
10.55 0.052255
10.56 0.051236
10.57 0.050334
10.58 0.049551
10.59 0.048882
10.60 0.048312
10.61 0.047821
10.62 0.047384
10.63 0.046977
10.64 0.046575
10.65 0.046157
10.66 0.045705
10.67 0.045217
10.68 0.044702
10.69 0.044185
10.70 0.043699
10.71 0.043275
10.72 0.042942
10.73 0.042723
10.74 0.042641
10.75 0.042718
10.76 0.042977
10.77 0.043438
10.78 0.044117
10.79 0.045023
10.80 0.046153
10.81 0.047488
10.82 0.048996
10.83 0.050635
10.84 0.052367
10.85 0.054156
10.86 0.055971
10.87 0.057786
10.88 0.059583
10.89 0.061347
10.90 0.063073
10.91 0.064764
10.92 0.066433
10.93 0.068088
10.94 0.069732
10.95 0.071349
10.96 0.072920
10.97 0.074420
10.98 0.075834
10.99 0.077152
11.00 0.078364
11.01 0.079458
11.02 0.080415
11.03 0.081216
11.04 0.081846
11.05 0.082296
11.06 0.082564
11.07 0.082649
11.08 0.082553
11.09 0.082280
11.10 0.081838
11.11 0.081238
11.12 0.080494
11.13 0.079618
11.14 0.078620
11.15 0.077503
11.16 0.076268
11.17 0.074917
11.18 0.073451
11.19 0.071874
11.20 0.070196
11.21 0.068435
11.22 0.066620
11.23 0.064787
11.24 0.062969
11.25 0.061197
11.26 0.059497
11.27 0.057895
11.28 0.056414
11.29 0.055083
11.30 0.053926
11.31 0.052969
11.32 0.052230
11.33 0.051709
11.34 0.051377
11.35 0.051182
11.36 0.051077
11.37 0.051035
11.38 0.051055
11.39 0.051144
11.40 0.051307
11.41 0.051532
11.42 0.051801
11.43 0.052089
11.44 0.052377
11.45 0.052650
11.46 0.052901
11.47 0.053125
11.48 0.053321
11.49 0.053484
11.50 0.053599
11.51 0.053653
11.52 0.053639
11.53 0.053557
11.54 0.053414
11.55 0.053221
11.56 0.052990
11.57 0.052734
11.58 0.052468
11.59 0.052203
11.60 0.051943
11.61 0.051687
11.62 0.051432
11.63 0.051177
11.64 0.050922
11.65 0.050662
11.66 0.050379
11.67 0.050049
11.68 0.049640
11.69 0.049121
11.70 0.048468
11.71 0.047667
11.72 0.046718
11.73 0.045627
11.74 0.044402
11.75 0.043045
11.76 0.041552
11.77 0.039923
11.78 0.038161
11.79 0.036275
11.80 0.034273
11.81 0.032155
11.82 0.029911
11.83 0.027534
11.84 0.025018
11.85 0.022363
11.86 0.019575
11.87 0.016660
11.88 0.013627
11.89 0.010487
11.90 0.007261
11.91 0.003971
11.92 0.000639
11.93 -0.002720
11.94 -0.006096
11.95 -0.009483
11.96 -0.012869
11.97 -0.016238
11.98 -0.019569
11.99 -0.022841
12.00 -0.026037
12.01 -0.029144
12.02 -0.032155
12.03 -0.035062
12.04 -0.037859
12.05 -0.040546
12.06 -0.043130
12.07 -0.045618
12.08 -0.048020
12.09 -0.050343
12.10 -0.052586
12.11 -0.054753
12.12 -0.056848
12.13 -0.058885
12.14 -0.060880
12.15 -0.062848
12.16 -0.064798
12.17 -0.066728
12.18 -0.068632
12.19 -0.070499
12.20 -0.072321
12.21 -0.074092
12.22 -0.075812
12.23 -0.077475
12.24 -0.079079
12.25 -0.080615
12.26 -0.082075
12.27 -0.083455
12.28 -0.084753
12.29 -0.085972
12.30 -0.087119
12.31 -0.088197
12.32 -0.089209
12.33 -0.090157
12.34 -0.091037
12.35 -0.091847
12.36 -0.092580
12.37 -0.093234
12.38 -0.093803
12.39 -0.094286
12.40 -0.094684
12.41 -0.095001
12.42 -0.095241
12.43 -0.095407
12.44 -0.095501
12.45 -0.095526
12.46 -0.095493
12.47 -0.095415
12.48 -0.095314
12.49 -0.095214
12.50 -0.095139
12.51 -0.095109
12.52 -0.095136
12.53 -0.095229
12.54 -0.095394
12.55 -0.095640
12.56 -0.095975
12.57 -0.096401
12.58 -0.096911
12.59 -0.097486
12.60 -0.098102
12.61 -0.098741
12.62 -0.099395
12.63 -0.100062
12.64 -0.100739
12.65 -0.101422
12.66 -0.102098
12.67 -0.102752
12.68 -0.103366
12.69 -0.103921
12.70 -0.104393
12.71 -0.104759
12.72 -0.105006
12.73 -0.105129
12.74 -0.105138
12.75 -0.105048
12.76 -0.104874
12.77 -0.104633
12.78 -0.104339
12.79 -0.104007
12.80 -0.103656
12.81 -0.103300
12.82 -0.102947
12.83 -0.102604
12.84 -0.102268
12.85 -0.101929
12.86 -0.101575
12.87 -0.101192
12.88 -0.100773
12.89 -0.100322
12.90 -0.099851
12.91 -0.099374
12.92 -0.098898
12.93 -0.098426
12.94 -0.097960
12.95 -0.097502
12.96 -0.097053
12.97 -0.096604
12.98 -0.096135
12.99 -0.095624
13.00 -0.095058
13.01 -0.094439
13.02 -0.093778
13.03 -0.093088
13.04 -0.092375
13.05 -0.091638
13.06 -0.090878
13.07 -0.090097
13.08 -0.089303
13.09 -0.088503
13.10 -0.087699
13.11 -0.086886
13.12 -0.086055
13.13 -0.085196
13.14 -0.084300
13.15 -0.083359
13.16 -0.082366
13.17 -0.081310
13.18 -0.080183
13.19 -0.078979
13.20 -0.077698
13.21 -0.076342
13.22 -0.074920
13.23 -0.073443
13.24 -0.071923
13.25 -0.070368
13.26 -0.068785
13.27 -0.067180
13.28 -0.065556
13.29 -0.063913
13.30 -0.062249
13.31 -0.060563
13.32 -0.058857
13.33 -0.057139
13.34 -0.055420
13.35 -0.053712
13.36 -0.052027
13.37 -0.050372
13.38 -0.048750
13.39 -0.047158
13.40 -0.045593
13.41 -0.044048
13.42 -0.042517
13.43 -0.040989
13.44 -0.039452
13.45 -0.037893
13.46 -0.036303
13.47 -0.034676
13.48 -0.033010
13.49 -0.031298
