# ®É¶¡ (s)    ¦ì²¾ (m)
0.00 0.000000
0.01 0.000000
0.02 -0.000000
0.03 -0.000001
0.04 -0.000002
0.05 -0.000004
0.06 -0.000007
0.07 -0.000009
0.08 -0.000013
0.09 -0.000016
0.10 -0.000021
0.11 -0.000026
0.12 -0.000031
0.13 -0.000037
0.14 -0.000043
0.15 -0.000049
0.16 -0.000056
0.17 -0.000064
0.18 -0.000072
0.19 -0.000081
0.20 -0.000089
0.21 -0.000099
0.22 -0.000108
0.23 -0.000119
0.24 -0.000129
0.25 -0.000140
0.26 -0.000151
0.27 -0.000163
0.28 -0.000175
0.29 -0.000188
0.30 -0.000201
0.31 -0.000214
0.32 -0.000227
0.33 -0.000241
0.34 -0.000256
0.35 -0.000270
0.36 -0.000285
0.37 -0.000300
0.38 -0.000315
0.39 -0.000331
0.40 -0.000346
0.41 -0.000363
0.42 -0.000379
0.43 -0.000396
0.44 -0.000414
0.45 -0.000431
0.46 -0.000449
0.47 -0.000467
0.48 -0.000485
0.49 -0.000503
0.50 -0.000521
0.51 -0.000540
0.52 -0.000559
0.53 -0.000577
0.54 -0.000597
0.55 -0.000616
0.56 -0.000635
0.57 -0.000654
0.58 -0.000674
0.59 -0.000694
0.60 -0.000714
0.61 -0.000734
0.62 -0.000754
0.63 -0.000774
0.64 -0.000795
0.65 -0.000815
0.66 -0.000836
0.67 -0.000856
0.68 -0.000877
0.69 -0.000898
0.70 -0.000918
0.71 -0.000939
0.72 -0.000960
0.73 -0.000980
0.74 -0.001000
0.75 -0.001020
0.76 -0.001040
0.77 -0.001059
0.78 -0.001079
0.79 -0.001098
0.80 -0.001118
0.81 -0.001137
0.82 -0.001157
0.83 -0.001177
0.84 -0.001197
0.85 -0.001216
0.86 -0.001235
0.87 -0.001254
0.88 -0.001274
0.89 -0.001293
0.90 -0.001312
0.91 -0.001331
0.92 -0.001349
0.93 -0.001367
0.94 -0.001385
0.95 -0.001402
0.96 -0.001419
0.97 -0.001435
0.98 -0.001452
0.99 -0.001469
1.00 -0.001486
1.01 -0.001503
1.02 -0.001519
1.03 -0.001536
1.04 -0.001552
1.05 -0.001568
1.06 -0.001583
1.07 -0.001599
1.08 -0.001614
1.09 -0.001629
1.10 -0.001644
1.11 -0.001659
1.12 -0.001674
1.13 -0.001689
1.14 -0.001704
1.15 -0.001719
1.16 -0.001734
1.17 -0.001748
1.18 -0.001762
1.19 -0.001776
1.20 -0.001790
1.21 -0.001803
1.22 -0.001815
1.23 -0.001826
1.24 -0.001836
1.25 -0.001845
1.26 -0.001852
1.27 -0.001859
1.28 -0.001865
1.29 -0.001872
1.30 -0.001878
1.31 -0.001884
1.32 -0.001890
1.33 -0.001895
1.34 -0.001901
1.35 -0.001905
1.36 -0.001909
1.37 -0.001912
1.38 -0.001914
1.39 -0.001915
1.40 -0.001915
1.41 -0.001915
1.42 -0.001914
1.43 -0.001913
1.44 -0.001910
1.45 -0.001908
1.46 -0.001905
1.47 -0.001902
1.48 -0.001901
1.49 -0.001900
1.50 -0.001899
1.51 -0.001897
1.52 -0.001895
1.53 -0.001893
1.54 -0.001889
1.55 -0.001885
1.56 -0.001880
1.57 -0.001873
1.58 -0.001866
1.59 -0.001860
1.60 -0.001854
1.61 -0.001847
1.62 -0.001841
1.63 -0.001833
1.64 -0.001824
1.65 -0.001814
1.66 -0.001802
1.67 -0.001789
1.68 -0.001776
1.69 -0.001761
1.70 -0.001746
1.71 -0.001731
1.72 -0.001716
1.73 -0.001701
1.74 -0.001684
1.75 -0.001667
1.76 -0.001648
1.77 -0.001629
1.78 -0.001609
1.79 -0.001589
1.80 -0.001569
1.81 -0.001549
1.82 -0.001529
1.83 -0.001509
1.84 -0.001489
1.85 -0.001468
1.86 -0.001446
1.87 -0.001423
1.88 -0.001399
1.89 -0.001375
1.90 -0.001349
1.91 -0.001324
1.92 -0.001298
1.93 -0.001273
1.94 -0.001248
1.95 -0.001223
1.96 -0.001196
1.97 -0.001169
1.98 -0.001141
1.99 -0.001111
2.00 -0.001080
2.01 -0.001047
2.02 -0.001014
2.03 -0.000981
2.04 -0.000949
2.05 -0.000916
2.06 -0.000883
2.07 -0.000850
2.08 -0.000815
2.09 -0.000780
2.10 -0.000743
2.11 -0.000706
2.12 -0.000669
2.13 -0.000631
2.14 -0.000593
2.15 -0.000555
2.16 -0.000516
2.17 -0.000477
2.18 -0.000437
2.19 -0.000396
2.20 -0.000353
2.21 -0.000310
2.22 -0.000267
2.23 -0.000224
2.24 -0.000182
2.25 -0.000140
2.26 -0.000098
2.27 -0.000056
2.28 -0.000015
2.29 0.000027
2.30 0.000070
2.31 0.000116
2.32 0.000164
2.33 0.000214
2.34 0.000266
2.35 0.000318
2.36 0.000371
2.37 0.000424
2.38 0.000476
2.39 0.000528
2.40 0.000580
2.41 0.000632
2.42 0.000682
2.43 0.000733
2.44 0.000783
2.45 0.000835
2.46 0.000887
2.47 0.000939
2.48 0.000993
2.49 0.001046
2.50 0.001098
2.51 0.001149
2.52 0.001199
2.53 0.001248
2.54 0.001298
2.55 0.001347
2.56 0.001398
2.57 0.001452
2.58 0.001508
2.59 0.001568
2.60 0.001631
2.61 0.001696
2.62 0.001764
2.63 0.001835
2.64 0.001906
2.65 0.001979
2.66 0.002051
2.67 0.002122
2.68 0.002191
2.69 0.002257
2.70 0.002321
2.71 0.002383
2.72 0.002442
2.73 0.002497
2.74 0.002551
2.75 0.002607
2.76 0.002665
2.77 0.002728
2.78 0.002796
2.79 0.002868
2.80 0.002943
2.81 0.003019
2.82 0.003094
2.83 0.003169
2.84 0.003244
2.85 0.003319
2.86 0.003397
2.87 0.003478
2.88 0.003562
2.89 0.003650
2.90 0.003742
2.91 0.003841
2.92 0.003944
2.93 0.004052
2.94 0.004162
2.95 0.004276
2.96 0.004393
2.97 0.004512
2.98 0.004634
2.99 0.004757
3.00 0.004878
3.01 0.004997
3.02 0.005110
3.03 0.005218
3.04 0.005325
3.05 0.005434
3.06 0.005549
3.07 0.005669
3.08 0.005793
3.09 0.005919
3.10 0.006045
3.11 0.006173
3.12 0.006305
3.13 0.006441
3.14 0.006582
3.15 0.006730
3.16 0.006883
3.17 0.007042
3.18 0.007205
3.19 0.007371
3.20 0.007541
3.21 0.007714
3.22 0.007890
3.23 0.008067
3.24 0.008240
3.25 0.008410
3.26 0.008578
3.27 0.008745
3.28 0.008913
3.29 0.009080
3.30 0.009245
3.31 0.009409
3.32 0.009571
3.33 0.009734
3.34 0.009900
3.35 0.010069
3.36 0.010242
3.37 0.010418
3.38 0.010594
3.39 0.010768
3.40 0.010942
3.41 0.011118
3.42 0.011301
3.43 0.011491
3.44 0.011690
3.45 0.011897
3.46 0.012110
3.47 0.012330
3.48 0.012554
3.49 0.012780
3.50 0.013002
3.51 0.013218
3.52 0.013424
3.53 0.013623
3.54 0.013816
3.55 0.014004
3.56 0.014188
3.57 0.014369
3.58 0.014547
3.59 0.014721
3.60 0.014894
3.61 0.015066
3.62 0.015241
3.63 0.015420
3.64 0.015604
3.65 0.015795
3.66 0.015991
3.67 0.016188
3.68 0.016382
3.69 0.016567
3.70 0.016742
3.71 0.016907
3.72 0.017066
3.73 0.017222
3.74 0.017383
3.75 0.017549
3.76 0.017723
3.77 0.017902
3.78 0.018085
3.79 0.018272
3.80 0.018461
3.81 0.018650
3.82 0.018830
3.83 0.018991
3.84 0.019125
3.85 0.019233
3.86 0.019321
3.87 0.019400
3.88 0.019482
3.89 0.019576
3.90 0.019683
3.91 0.019803
3.92 0.019932
3.93 0.020066
3.94 0.020202
3.95 0.020338
3.96 0.020470
3.97 0.020596
3.98 0.020713
3.99 0.020822
4.00 0.020927
4.01 0.021031
4.02 0.021139
4.03 0.021251
4.04 0.021369
4.05 0.021492
4.06 0.021617
4.07 0.021743
4.08 0.021867
4.09 0.021984
4.10 0.022090
4.11 0.022175
4.12 0.022236
4.13 0.022271
4.14 0.022286
4.15 0.022292
4.16 0.022299
4.17 0.022316
4.18 0.022349
4.19 0.022403
4.20 0.022477
4.21 0.022564
4.22 0.022658
4.23 0.022752
4.24 0.022845
4.25 0.022936
4.26 0.023023
4.27 0.023102
4.28 0.023168
4.29 0.023217
4.30 0.023249
4.31 0.023265
4.32 0.023265
4.33 0.023249
4.34 0.023213
4.35 0.023158
4.36 0.023085
4.37 0.023002
4.38 0.022923
4.39 0.022860
4.40 0.022823
4.41 0.022816
4.42 0.022835
4.43 0.022872
4.44 0.022912
4.45 0.022937
4.46 0.022931
4.47 0.022880
4.48 0.022777
4.49 0.022619
4.50 0.022407
4.51 0.022148
4.52 0.021852
4.53 0.021535
4.54 0.021211
4.55 0.020898
4.56 0.020611
4.57 0.020366
4.58 0.020174
4.59 0.020039
4.60 0.019960
4.61 0.019929
4.62 0.019934
4.63 0.019964
4.64 0.020013
4.65 0.020075
4.66 0.020142
4.67 0.020200
4.68 0.020228
4.69 0.020206
4.70 0.020111
4.71 0.019926
4.72 0.019635
4.73 0.019234
4.74 0.018727
4.75 0.018124
4.76 0.017439
4.77 0.016686
4.78 0.015874
4.79 0.015011
4.80 0.014100
4.81 0.013139
4.82 0.012116
4.83 0.011025
4.84 0.009865
4.85 0.008652
4.86 0.007406
4.87 0.006149
4.88 0.004894
4.89 0.003644
4.90 0.002399
4.91 0.001157
4.92 -0.000082
4.93 -0.001310
4.94 -0.002523
4.95 -0.003721
4.96 -0.004917
4.97 -0.006131
4.98 -0.007383
4.99 -0.008689
5.00 -0.010052
5.01 -0.011470
5.02 -0.012940
5.03 -0.014450
5.04 -0.015985
5.05 -0.017517
5.06 -0.019009
5.07 -0.020428
5.08 -0.021749
5.09 -0.022967
5.10 -0.024096
5.11 -0.025156
5.12 -0.026165
5.13 -0.027126
5.14 -0.028035
5.15 -0.028885
5.16 -0.029674
5.17 -0.030404
5.18 -0.031077
5.19 -0.031695
5.20 -0.032263
5.21 -0.032792
5.22 -0.033306
5.23 -0.033826
5.24 -0.034373
5.25 -0.034956
5.26 -0.035581
5.27 -0.036247
5.28 -0.036955
5.29 -0.037705
5.30 -0.038502
5.31 -0.039344
5.32 -0.040222
5.33 -0.041116
5.34 -0.042003
5.35 -0.042864
5.36 -0.043687
5.37 -0.044463
5.38 -0.045181
5.39 -0.045831
5.40 -0.046408
5.41 -0.046918
5.42 -0.047381
5.43 -0.047821
5.44 -0.048263
5.45 -0.048724
5.46 -0.049210
5.47 -0.049714
5.48 -0.050214
5.49 -0.050682
5.50 -0.051090
5.51 -0.051416
5.52 -0.051651
5.53 -0.051800
5.54 -0.051877
5.55 -0.051895
5.56 -0.051866
5.57 -0.051795
5.58 -0.051688
5.59 -0.051552
5.60 -0.051390
5.61 -0.051202
5.62 -0.050979
5.63 -0.050708
5.64 -0.050377
5.65 -0.049974
5.66 -0.049482
5.67 -0.048889
5.68 -0.048185
5.69 -0.047372
5.70 -0.046460
5.71 -0.045463
5.72 -0.044390
5.73 -0.043247
5.74 -0.042033
5.75 -0.040744
5.76 -0.039376
5.77 -0.037930
5.78 -0.036413
5.79 -0.034841
5.80 -0.033229
5.81 -0.031592
5.82 -0.029932
5.83 -0.028240
5.84 -0.026495
5.85 -0.024665
5.86 -0.022718
5.87 -0.020620
5.88 -0.018348
5.89 -0.015892
5.90 -0.013257
5.91 -0.010465
5.92 -0.007550
5.93 -0.004557
5.94 -0.001532
5.95 0.001479
5.96 0.004430
5.97 0.007285
5.98 0.010011
5.99 0.012588
6.00 0.015003
6.01 0.017251
6.02 0.019334
6.03 0.021259
6.04 0.023036
6.05 0.024669
6.06 0.026152
6.07 0.027478
6.08 0.028643
6.09 0.029661
6.10 0.030569
6.11 0.031416
6.12 0.032259
6.13 0.033144
6.14 0.034102
6.15 0.035150
6.16 0.036288
6.17 0.037505
6.18 0.038789
6.19 0.040134
6.20 0.041533
6.21 0.042982
6.22 0.044472
6.23 0.045990
6.24 0.047515
6.25 0.049024
6.26 0.050493
6.27 0.051902
6.28 0.053233
6.29 0.054472
6.30 0.055605
6.31 0.056617
6.32 0.057496
6.33 0.058238
6.34 0.058853
6.35 0.059355
6.36 0.059765
6.37 0.060095
6.38 0.060354
6.39 0.060546
6.40 0.060675
6.41 0.060750
6.42 0.060787
6.43 0.060810
6.44 0.060846
6.45 0.060921
6.46 0.061049
6.47 0.061235
6.48 0.061470
6.49 0.061743
6.50 0.062039
6.51 0.062340
6.52 0.062628
6.53 0.062882
6.54 0.063075
6.55 0.063184
6.56 0.063189
6.57 0.063087
6.58 0.062889
6.59 0.062626
6.60 0.062334
6.61 0.062048
6.62 0.061791
6.63 0.061571
6.64 0.061387
6.65 0.061229
6.66 0.061083
6.67 0.060931
6.68 0.060751
6.69 0.060526
6.70 0.060240
6.71 0.059877
6.72 0.059420
6.73 0.058845
6.74 0.058129
6.75 0.057254
6.76 0.056211
6.77 0.055000
6.78 0.053631
6.79 0.052123
6.80 0.050496
6.81 0.048767
6.82 0.046945
6.83 0.045031
6.84 0.043023
6.85 0.040916
6.86 0.038708
6.87 0.036393
6.88 0.033963
6.89 0.031413
6.90 0.028741
6.91 0.025948
6.92 0.023036
6.93 0.020001
6.94 0.016832
6.95 0.013518
6.96 0.010050
6.97 0.006423
6.98 0.002632
6.99 -0.001323
7.00 -0.005431
7.01 -0.009655
7.02 -0.013927
7.03 -0.018149
7.04 -0.022212
7.05 -0.026006
7.06 -0.029441
7.07 -0.032452
7.08 -0.035007
7.09 -0.037097
7.10 -0.038739
7.11 -0.039970
7.12 -0.040841
7.13 -0.041405
7.14 -0.041710
7.15 -0.041798
7.16 -0.041716
7.17 -0.041522
7.18 -0.041281
7.19 -0.041050
7.20 -0.040870
7.21 -0.040763
7.22 -0.040744
7.23 -0.040814
7.24 -0.040970
7.25 -0.041201
7.26 -0.041494
7.27 -0.041838
7.28 -0.042231
7.29 -0.042685
7.30 -0.043225
7.31 -0.043892
7.32 -0.044723
7.33 -0.045740
7.34 -0.046947
7.35 -0.048325
7.36 -0.049847
7.37 -0.051488
7.38 -0.053235
7.39 -0.055087
7.40 -0.057053
7.41 -0.059145
7.42 -0.061372
7.43 -0.063735
7.44 -0.066225
7.45 -0.068824
7.46 -0.071511
7.47 -0.074274
7.48 -0.077100
7.49 -0.079977
7.50 -0.082886
7.51 -0.085799
7.52 -0.088680
7.53 -0.091485
7.54 -0.094170
7.55 -0.096694
7.56 -0.099025
7.57 -0.101142
7.58 -0.103033
7.59 -0.104693
7.60 -0.106119
7.61 -0.107303
7.62 -0.108246
7.63 -0.108954
7.64 -0.109450
7.65 -0.109772
7.66 -0.109971
7.67 -0.110093
7.68 -0.110180
7.69 -0.110259
7.70 -0.110350
7.71 -0.110459
7.72 -0.110583
7.73 -0.110710
7.74 -0.110831
7.75 -0.110938
7.76 -0.111028
7.77 -0.111103
7.78 -0.111170
7.79 -0.111241
7.80 -0.111336
7.81 -0.111478
7.82 -0.111684
7.83 -0.111958
7.84 -0.112278
7.85 -0.112597
7.86 -0.112860
7.87 -0.113014
7.88 -0.113020
7.89 -0.112846
7.90 -0.112463
7.91 -0.111842
7.92 -0.110963
7.93 -0.109815
7.94 -0.108398
7.95 -0.106715
7.96 -0.104767
7.97 -0.102552
7.98 -0.100067
7.99 -0.097314
8.00 -0.094312
8.01 -0.091100
8.02 -0.087735
8.03 -0.084276
8.04 -0.080773
8.05 -0.077262
8.06 -0.073778
8.07 -0.070355
8.08 -0.067035
8.09 -0.063859
8.10 -0.060871
8.11 -0.058108
8.12 -0.055588
8.13 -0.053314
8.14 -0.051275
8.15 -0.049454
8.16 -0.047841
8.17 -0.046433
8.18 -0.045240
8.19 -0.044270
8.20 -0.043536
8.21 -0.043046
8.22 -0.042807
8.23 -0.042825
8.24 -0.043105
8.25 -0.043652
8.26 -0.044468
8.27 -0.045550
8.28 -0.046888
8.29 -0.048455
8.30 -0.050210
8.31 -0.052103
8.32 -0.054077
8.33 -0.056074
8.34 -0.058039
8.35 -0.059921
8.36 -0.061680
8.37 -0.063281
8.38 -0.064695
8.39 -0.065894
8.40 -0.066863
8.41 -0.067598
8.42 -0.068109
8.43 -0.068413
8.44 -0.068526
8.45 -0.068458
8.46 -0.068212
8.47 -0.067778
8.48 -0.067134
8.49 -0.066255
8.50 -0.065121
8.51 -0.063731
8.52 -0.062098
8.53 -0.060247
8.54 -0.058205
8.55 -0.055994
8.56 -0.053632
8.57 -0.051140
8.58 -0.048538
8.59 -0.045851
8.60 -0.043101
8.61 -0.040307
8.62 -0.037489
8.63 -0.034666
8.64 -0.031864
8.65 -0.029112
8.66 -0.026453
8.67 -0.023931
8.68 -0.021587
8.69 -0.019448
8.70 -0.017531
8.71 -0.015844
8.72 -0.014391
8.73 -0.013170
8.74 -0.012167
8.75 -0.011364
8.76 -0.010732
8.77 -0.010239
8.78 -0.009848
8.79 -0.009523
8.80 -0.009233
8.81 -0.008950
8.82 -0.008655
8.83 -0.008336
8.84 -0.007996
8.85 -0.007653
8.86 -0.007331
8.87 -0.007057
8.88 -0.006849
8.89 -0.006714
8.90 -0.006654
8.91 -0.006661
8.92 -0.006723
8.93 -0.006821
8.94 -0.006935
8.95 -0.007053
8.96 -0.007166
8.97 -0.007276
8.98 -0.007392
8.99 -0.007530
9.00 -0.007714
9.01 -0.007968
9.02 -0.008310
9.03 -0.008747
9.04 -0.009277
9.05 -0.009890
9.06 -0.010564
9.07 -0.011267
9.08 -0.011962
9.09 -0.012608
9.10 -0.013168
9.11 -0.013611
9.12 -0.013911
9.13 -0.014041
9.14 -0.013982
9.15 -0.013725
9.16 -0.013275
9.17 -0.012651
9.18 -0.011880
9.19 -0.010995
9.20 -0.010039
9.21 -0.009057
9.22 -0.008088
9.23 -0.007161
9.24 -0.006288
9.25 -0.005469
9.26 -0.004688
9.27 -0.003918
9.28 -0.003118
9.29 -0.002232
9.30 -0.001204
9.31 0.000018
9.32 0.001473
9.33 0.003185
9.34 0.005162
9.35 0.007400
9.36 0.009882
9.37 0.012592
9.38 0.015508
9.39 0.018604
9.40 0.021846
9.41 0.025186
9.42 0.028579
9.43 0.031988
9.44 0.035384
9.45 0.038740
9.46 0.042022
9.47 0.045188
9.48 0.048196
9.49 0.051010
9.50 0.053599
9.51 0.055933
9.52 0.057984
9.53 0.059732
9.54 0.061171
9.55 0.062312
9.56 0.063174
9.57 0.063779
9.58 0.064153
9.59 0.064321
9.60 0.064309
9.61 0.064147
9.62 0.063865
9.63 0.063494
9.64 0.063071
9.65 0.062631
9.66 0.062210
9.67 0.061840
9.68 0.061541
9.69 0.061323
9.70 0.061181
9.71 0.061111
9.72 0.061112
9.73 0.061192
9.74 0.061362
9.75 0.061633
9.76 0.062005
9.77 0.062468
9.78 0.063001
9.79 0.063574
9.80 0.064158
9.81 0.064739
9.82 0.065319
9.83 0.065913
9.84 0.066538
9.85 0.067218
9.86 0.067979
9.87 0.068852
9.88 0.069857
9.89 0.071001
9.90 0.072262
9.91 0.073599
9.92 0.074962
9.93 0.076302
9.94 0.077577
9.95 0.078755
9.96 0.079815
9.97 0.080745
9.98 0.081544
9.99 0.082218
10.00 0.082780
10.01 0.083252
10.02 0.083662
10.03 0.084034
10.04 0.084390
10.05 0.084737
10.06 0.085071
10.07 0.085379
10.08 0.085638
10.09 0.085818
10.10 0.085885
10.11 0.085806
10.12 0.085548
10.13 0.085080
10.14 0.084375
10.15 0.083413
10.16 0.082174
10.17 0.080652
10.18 0.078854
10.19 0.076814
10.20 0.074599
10.21 0.072300
10.22 0.070020
10.23 0.067851
10.24 0.065855
10.25 0.064071
10.26 0.062519
10.27 0.061205
10.28 0.060128
10.29 0.059273
10.30 0.058611
10.31 0.058097
10.32 0.057685
10.33 0.057337
10.34 0.057022
10.35 0.056715
10.36 0.056388
10.37 0.056009
10.38 0.055548
10.39 0.054984
10.40 0.054310
10.41 0.053531
10.42 0.052651
10.43 0.051677
10.44 0.050615
10.45 0.049470
10.46 0.048249
10.47 0.046969
10.48 0.045654
10.49 0.044334
10.50 0.043033
10.51 0.041772
10.52 0.040565
10.53 0.039426
10.54 0.038371
10.55 0.037418
10.56 0.036581
10.57 0.035869
10.58 0.035284
10.59 0.034821
10.60 0.034465
10.61 0.034195
10.62 0.033985
10.63 0.033810
10.64 0.033647
10.65 0.033473
10.66 0.033273
10.67 0.033041
10.68 0.032789
10.69 0.032541
10.70 0.032329
10.71 0.032185
10.72 0.032136
10.73 0.032206
10.74 0.032417
10.75 0.032791
10.76 0.033349
10.77 0.034111
10.78 0.035093
10.79 0.036301
10.80 0.037733
10.81 0.039367
10.82 0.041171
10.83 0.043105
10.84 0.045127
10.85 0.047202
10.86 0.049298
10.87 0.051391
10.88 0.053461
10.89 0.055494
10.90 0.057484
10.91 0.059435
10.92 0.061360
10.93 0.063267
10.94 0.065157
10.95 0.067017
10.96 0.068826
10.97 0.070561
10.98 0.072205
10.99 0.073750
11.00 0.075185
11.01 0.076499
11.02 0.077674
11.03 0.078690
11.04 0.079534
11.05 0.080197
11.06 0.080677
11.07 0.080974
11.08 0.081091
11.09 0.081031
11.10 0.080805
11.11 0.080423
11.12 0.079898
11.13 0.079246
11.14 0.078474
11.15 0.077587
11.16 0.076587
11.17 0.075475
11.18 0.074252
11.19 0.072924
11.20 0.071499
11.21 0.069997
11.22 0.068447
11.23 0.066883
11.24 0.065341
11.25 0.063850
11.26 0.062436
11.27 0.061123
11.28 0.059936
11.29 0.058902
11.30 0.058045
11.31 0.057389
11.32 0.056952
11.33 0.056733
11.34 0.056701
11.35 0.056806
11.36 0.056999
11.37 0.057252
11.38 0.057563
11.39 0.057941
11.40 0.058389
11.41 0.058895
11.42 0.059440
11.43 0.060001
11.44 0.060557
11.45 0.061093
11.46 0.061602
11.47 0.062080
11.48 0.062526
11.49 0.062933
11.50 0.063288
11.51 0.063577
11.52 0.063794
11.53 0.063939
11.54 0.064019
11.55 0.064045
11.56 0.064029
11.57 0.063985
11.58 0.063927
11.59 0.063866
11.60 0.063806
11.61 0.063745
11.62 0.063682
11.63 0.063614
11.64 0.063542
11.65 0.063460
11.66 0.063352
11.67 0.063191
11.68 0.062948
11.69 0.062590
11.70 0.062095
11.71 0.061449
11.72 0.060652
11.73 0.059711
11.74 0.058634
11.75 0.057423
11.76 0.056076
11.77 0.054592
11.78 0.052974
11.79 0.051234
11.80 0.049377
11.81 0.047405
11.82 0.045309
11.83 0.043081
11.84 0.040716
11.85 0.038215
11.86 0.035583
11.87 0.032828
11.88 0.029958
11.89 0.026986
11.90 0.023930
11.91 0.020816
11.92 0.017663
11.93 0.014489
11.94 0.011301
11.95 0.008108
11.96 0.004918
11.97 0.001750
11.98 -0.001376
11.99 -0.004439
12.00 -0.007423
12.01 -0.010316
12.02 -0.013110
12.03 -0.015797
12.04 -0.018374
12.05 -0.020840
12.06 -0.023202
12.07 -0.025469
12.08 -0.027650
12.09 -0.029752
12.10 -0.031777
12.11 -0.033726
12.12 -0.035606
12.13 -0.037429
12.14 -0.039214
12.15 -0.040974
12.16 -0.042719
12.17 -0.044447
12.18 -0.046152
12.19 -0.047823
12.20 -0.049453
12.21 -0.051037
12.22 -0.052572
12.23 -0.054056
12.24 -0.055485
12.25 -0.056851
12.26 -0.058146
12.27 -0.059367
12.28 -0.060511
12.29 -0.061584
12.30 -0.062589
12.31 -0.063534
12.32 -0.064420
12.33 -0.065248
12.34 -0.066017
12.35 -0.066724
12.36 -0.067362
12.37 -0.067929
12.38 -0.068420
12.39 -0.068835
12.40 -0.069175
12.41 -0.069442
12.42 -0.069643
12.43 -0.069781
12.44 -0.069857
12.45 -0.069876
12.46 -0.069846
12.47 -0.069784
12.48 -0.069711
12.49 -0.069650
12.50 -0.069625
12.51 -0.069656
12.52 -0.069755
12.53 -0.069931
12.54 -0.070190
12.55 -0.070540
12.56 -0.070988
12.57 -0.071538
12.58 -0.072180
12.59 -0.072896
12.60 -0.073661
12.61 -0.074459
12.62 -0.075279
12.63 -0.076120
12.64 -0.076980
12.65 -0.077854
12.66 -0.078729
12.67 -0.079589
12.68 -0.080418
12.69 -0.081196
12.70 -0.081899
12.71 -0.082506
12.72 -0.083001
12.73 -0.083383
12.74 -0.083660
12.75 -0.083848
12.76 -0.083963
12.77 -0.084021
12.78 -0.084037
12.79 -0.084026
12.80 -0.084006
12.81 -0.083991
12.82 -0.083992
12.83 -0.084012
12.84 -0.084048
12.85 -0.084093
12.86 -0.084133
12.87 -0.084154
12.88 -0.084148
12.89 -0.084121
12.90 -0.084084
12.91 -0.084051
12.92 -0.084030
12.93 -0.084022
12.94 -0.084029
12.95 -0.084054
12.96 -0.084097
12.97 -0.084150
12.98 -0.084191
12.99 -0.084200
13.00 -0.084162
13.01 -0.084081
13.02 -0.083967
13.03 -0.083833
13.04 -0.083685
13.05 -0.083523
13.06 -0.083345
13.07 -0.083156
13.08 -0.082963
13.09 -0.082773
13.10 -0.082587
13.11 -0.082400
13.12 -0.082203
13.13 -0.081987
13.14 -0.081742
13.15 -0.081460
13.16 -0.081133
13.17 -0.080752
13.18 -0.080309
13.19 -0.079797
13.20 -0.079216
13.21 -0.078569
13.22 -0.077864
13.23 -0.077113
13.24 -0.076326
13.25 -0.075514
13.26 -0.074683
13.27 -0.073837
13.28 -0.072980
13.29 -0.072113
13.30 -0.071234
13.31 -0.070339
13.32 -0.069432
13.33 -0.068521
13.34 -0.067615
13.35 -0.066728
13.36 -0.065871
13.37 -0.065051
13.38 -0.064270
13.39 -0.063525
13.40 -0.062811
13.41 -0.062124
13.42 -0.061455
13.43 -0.060794
13.44 -0.060128
13.45 -0.059445
13.46 -0.058734
13.47 -0.057992
13.48 -0.057214
13.49 -0.056394
