# ®É¶¡ (s)    ¦ì²¾ (m)
0.00 0.000000
0.01 0.000000
0.02 -0.000000
0.03 -0.000001
0.04 -0.000002
0.05 -0.000004
0.06 -0.000007
0.07 -0.000009
0.08 -0.000013
0.09 -0.000017
0.10 -0.000021
0.11 -0.000026
0.12 -0.000031
0.13 -0.000037
0.14 -0.000043
0.15 -0.000050
0.16 -0.000057
0.17 -0.000065
0.18 -0.000073
0.19 -0.000082
0.20 -0.000091
0.21 -0.000100
0.22 -0.000110
0.23 -0.000121
0.24 -0.000131
0.25 -0.000143
0.26 -0.000154
0.27 -0.000166
0.28 -0.000179
0.29 -0.000192
0.30 -0.000205
0.31 -0.000219
0.32 -0.000233
0.33 -0.000247
0.34 -0.000262
0.35 -0.000277
0.36 -0.000292
0.37 -0.000308
0.38 -0.000324
0.39 -0.000340
0.40 -0.000357
0.41 -0.000374
0.42 -0.000391
0.43 -0.000409
0.44 -0.000427
0.45 -0.000446
0.46 -0.000465
0.47 -0.000483
0.48 -0.000502
0.49 -0.000522
0.50 -0.000541
0.51 -0.000561
0.52 -0.000581
0.53 -0.000601
0.54 -0.000621
0.55 -0.000641
0.56 -0.000662
0.57 -0.000683
0.58 -0.000704
0.59 -0.000725
0.60 -0.000747
0.61 -0.000768
0.62 -0.000790
0.63 -0.000812
0.64 -0.000834
0.65 -0.000856
0.66 -0.000878
0.67 -0.000900
0.68 -0.000923
0.69 -0.000945
0.70 -0.000968
0.71 -0.000990
0.72 -0.001013
0.73 -0.001035
0.74 -0.001058
0.75 -0.001080
0.76 -0.001101
0.77 -0.001123
0.78 -0.001144
0.79 -0.001166
0.80 -0.001187
0.81 -0.001209
0.82 -0.001231
0.83 -0.001253
0.84 -0.001275
0.85 -0.001297
0.86 -0.001319
0.87 -0.001340
0.88 -0.001362
0.89 -0.001384
0.90 -0.001405
0.91 -0.001427
0.92 -0.001447
0.93 -0.001468
0.94 -0.001488
0.95 -0.001507
0.96 -0.001527
0.97 -0.001546
0.98 -0.001566
0.99 -0.001585
1.00 -0.001605
1.01 -0.001624
1.02 -0.001643
1.03 -0.001663
1.04 -0.001681
1.05 -0.001700
1.06 -0.001718
1.07 -0.001736
1.08 -0.001754
1.09 -0.001772
1.10 -0.001790
1.11 -0.001808
1.12 -0.001826
1.13 -0.001843
1.14 -0.001861
1.15 -0.001879
1.16 -0.001896
1.17 -0.001913
1.18 -0.001930
1.19 -0.001947
1.20 -0.001964
1.21 -0.001979
1.22 -0.001994
1.23 -0.002008
1.24 -0.002021
1.25 -0.002032
1.26 -0.002042
1.27 -0.002052
1.28 -0.002061
1.29 -0.002070
1.30 -0.002079
1.31 -0.002088
1.32 -0.002096
1.33 -0.002104
1.34 -0.002112
1.35 -0.002119
1.36 -0.002125
1.37 -0.002131
1.38 -0.002136
1.39 -0.002139
1.40 -0.002142
1.41 -0.002143
1.42 -0.002145
1.43 -0.002146
1.44 -0.002146
1.45 -0.002145
1.46 -0.002145
1.47 -0.002144
1.48 -0.002145
1.49 -0.002146
1.50 -0.002147
1.51 -0.002147
1.52 -0.002147
1.53 -0.002146
1.54 -0.002145
1.55 -0.002142
1.56 -0.002138
1.57 -0.002134
1.58 -0.002129
1.59 -0.002124
1.60 -0.002119
1.61 -0.002114
1.62 -0.002109
1.63 -0.002103
1.64 -0.002095
1.65 -0.002086
1.66 -0.002075
1.67 -0.002063
1.68 -0.002051
1.69 -0.002037
1.70 -0.002023
1.71 -0.002009
1.72 -0.001995
1.73 -0.001980
1.74 -0.001964
1.75 -0.001947
1.76 -0.001929
1.77 -0.001909
1.78 -0.001890
1.79 -0.001870
1.80 -0.001850
1.81 -0.001830
1.82 -0.001810
1.83 -0.001791
1.84 -0.001770
1.85 -0.001749
1.86 -0.001726
1.87 -0.001703
1.88 -0.001678
1.89 -0.001653
1.90 -0.001627
1.91 -0.001600
1.92 -0.001574
1.93 -0.001548
1.94 -0.001522
1.95 -0.001495
1.96 -0.001468
1.97 -0.001440
1.98 -0.001410
1.99 -0.001378
2.00 -0.001345
2.01 -0.001311
2.02 -0.001276
2.03 -0.001241
2.04 -0.001207
2.05 -0.001172
2.06 -0.001137
2.07 -0.001101
2.08 -0.001064
2.09 -0.001026
2.10 -0.000987
2.11 -0.000947
2.12 -0.000907
2.13 -0.000866
2.14 -0.000825
2.15 -0.000784
2.16 -0.000742
2.17 -0.000700
2.18 -0.000656
2.19 -0.000611
2.20 -0.000565
2.21 -0.000519
2.22 -0.000472
2.23 -0.000425
2.24 -0.000378
2.25 -0.000332
2.26 -0.000286
2.27 -0.000241
2.28 -0.000195
2.29 -0.000148
2.30 -0.000100
2.31 -0.000050
2.32 0.000003
2.33 0.000058
2.34 0.000115
2.35 0.000172
2.36 0.000230
2.37 0.000288
2.38 0.000346
2.39 0.000404
2.40 0.000461
2.41 0.000518
2.42 0.000575
2.43 0.000631
2.44 0.000688
2.45 0.000745
2.46 0.000803
2.47 0.000862
2.48 0.000922
2.49 0.000982
2.50 0.001041
2.51 0.001099
2.52 0.001155
2.53 0.001211
2.54 0.001267
2.55 0.001324
2.56 0.001382
2.57 0.001442
2.58 0.001506
2.59 0.001573
2.60 0.001643
2.61 0.001716
2.62 0.001792
2.63 0.001870
2.64 0.001949
2.65 0.002030
2.66 0.002110
2.67 0.002189
2.68 0.002265
2.69 0.002340
2.70 0.002413
2.71 0.002483
2.72 0.002550
2.73 0.002614
2.74 0.002677
2.75 0.002741
2.76 0.002808
2.77 0.002880
2.78 0.002956
2.79 0.003037
2.80 0.003121
2.81 0.003206
2.82 0.003291
2.83 0.003375
2.84 0.003459
2.85 0.003544
2.86 0.003631
2.87 0.003722
2.88 0.003815
2.89 0.003913
2.90 0.004015
2.91 0.004123
2.92 0.004237
2.93 0.004355
2.94 0.004476
2.95 0.004600
2.96 0.004727
2.97 0.004858
2.98 0.004991
2.99 0.005125
3.00 0.005257
3.01 0.005387
3.02 0.005512
3.03 0.005632
3.04 0.005751
3.05 0.005872
3.06 0.005998
3.07 0.006131
3.08 0.006267
3.09 0.006405
3.10 0.006544
3.11 0.006685
3.12 0.006829
3.13 0.006978
3.14 0.007133
3.15 0.007294
3.16 0.007461
3.17 0.007634
3.18 0.007810
3.19 0.007991
3.20 0.008175
3.21 0.008363
3.22 0.008554
3.23 0.008745
3.24 0.008934
3.25 0.009119
3.26 0.009302
3.27 0.009485
3.28 0.009669
3.29 0.009853
3.30 0.010035
3.31 0.010214
3.32 0.010393
3.33 0.010573
3.34 0.010756
3.35 0.010943
3.36 0.011133
3.37 0.011326
3.38 0.011520
3.39 0.011713
3.40 0.011905
3.41 0.012099
3.42 0.012300
3.43 0.012509
3.44 0.012727
3.45 0.012953
3.46 0.013186
3.47 0.013425
3.48 0.013669
3.49 0.013915
3.50 0.014158
3.51 0.014394
3.52 0.014621
3.53 0.014841
3.54 0.015056
3.55 0.015265
3.56 0.015470
3.57 0.015673
3.58 0.015872
3.59 0.016069
3.60 0.016263
3.61 0.016458
3.62 0.016655
3.63 0.016856
3.64 0.017063
3.65 0.017276
3.66 0.017495
3.67 0.017715
3.68 0.017931
3.69 0.018140
3.70 0.018338
3.71 0.018526
3.72 0.018708
3.73 0.018888
3.74 0.019072
3.75 0.019262
3.76 0.019459
3.77 0.019661
3.78 0.019868
3.79 0.020079
3.80 0.020292
3.81 0.020504
3.82 0.020708
3.83 0.020893
3.84 0.021052
3.85 0.021183
3.86 0.021295
3.87 0.021397
3.88 0.021503
3.89 0.021620
3.90 0.021750
3.91 0.021893
3.92 0.022045
3.93 0.022201
3.94 0.022360
3.95 0.022519
3.96 0.022673
3.97 0.022821
3.98 0.022961
3.99 0.023093
4.00 0.023220
4.01 0.023346
4.02 0.023475
4.03 0.023609
4.04 0.023749
4.05 0.023892
4.06 0.024039
4.07 0.024186
4.08 0.024331
4.09 0.024469
4.10 0.024595
4.11 0.024701
4.12 0.024782
4.13 0.024837
4.14 0.024872
4.15 0.024897
4.16 0.024923
4.17 0.024958
4.18 0.025010
4.19 0.025081
4.20 0.025173
4.21 0.025277
4.22 0.025388
4.23 0.025499
4.24 0.025609
4.25 0.025716
4.26 0.025820
4.27 0.025915
4.28 0.025997
4.29 0.026062
4.30 0.026109
4.31 0.026140
4.32 0.026154
4.33 0.026152
4.34 0.026130
4.35 0.026088
4.36 0.026027
4.37 0.025957
4.38 0.025889
4.39 0.025837
4.40 0.025810
4.41 0.025813
4.42 0.025842
4.43 0.025888
4.44 0.025936
4.45 0.025970
4.46 0.025972
4.47 0.025929
4.48 0.025833
4.49 0.025682
4.50 0.025476
4.51 0.025222
4.52 0.024930
4.53 0.024615
4.54 0.024293
4.55 0.023981
4.56 0.023694
4.57 0.023448
4.58 0.023253
4.59 0.023115
4.60 0.023033
4.61 0.022998
4.62 0.022999
4.63 0.023025
4.64 0.023069
4.65 0.023127
4.66 0.023189
4.67 0.023241
4.68 0.023264
4.69 0.023237
4.70 0.023136
4.71 0.022944
4.72 0.022646
4.73 0.022237
4.74 0.021720
4.75 0.021106
4.76 0.020408
4.77 0.019640
4.78 0.018811
4.79 0.017929
4.80 0.016998
4.81 0.016013
4.82 0.014965
4.83 0.013845
4.84 0.012654
4.85 0.011407
4.86 0.010125
4.87 0.008828
4.88 0.007530
4.89 0.006235
4.90 0.004942
4.91 0.003648
4.92 0.002355
4.93 0.001070
4.94 -0.000203
4.95 -0.001464
4.96 -0.002725
4.97 -0.004006
4.98 -0.005329
4.99 -0.006708
5.00 -0.008147
5.01 -0.009645
5.02 -0.011196
5.03 -0.012792
5.04 -0.014416
5.05 -0.016039
5.06 -0.017627
5.07 -0.019143
5.08 -0.020565
5.09 -0.021887
5.10 -0.023121
5.11 -0.024290
5.12 -0.025408
5.13 -0.026480
5.14 -0.027503
5.15 -0.028468
5.16 -0.029372
5.17 -0.030219
5.18 -0.031010
5.19 -0.031747
5.20 -0.032435
5.21 -0.033085
5.22 -0.033719
5.23 -0.034360
5.24 -0.035029
5.25 -0.035734
5.26 -0.036482
5.27 -0.037272
5.28 -0.038104
5.29 -0.038979
5.30 -0.039901
5.31 -0.040870
5.32 -0.041876
5.33 -0.042899
5.34 -0.043916
5.35 -0.044908
5.36 -0.045863
5.37 -0.046771
5.38 -0.047622
5.39 -0.048406
5.40 -0.049116
5.41 -0.049761
5.42 -0.050357
5.43 -0.050931
5.44 -0.051506
5.45 -0.052100
5.46 -0.052719
5.47 -0.053355
5.48 -0.053987
5.49 -0.054588
5.50 -0.055127
5.51 -0.055584
5.52 -0.055949
5.53 -0.056228
5.54 -0.056433
5.55 -0.056578
5.56 -0.056673
5.57 -0.056726
5.58 -0.056741
5.59 -0.056724
5.60 -0.056681
5.61 -0.056608
5.62 -0.056498
5.63 -0.056339
5.64 -0.056118
5.65 -0.055820
5.66 -0.055433
5.67 -0.054941
5.68 -0.054334
5.69 -0.053615
5.70 -0.052794
5.71 -0.051883
5.72 -0.050893
5.73 -0.049828
5.74 -0.048687
5.75 -0.047467
5.76 -0.046164
5.77 -0.044777
5.78 -0.043314
5.79 -0.041790
5.80 -0.040222
5.81 -0.038623
5.82 -0.036995
5.83 -0.035330
5.84 -0.033606
5.85 -0.031792
5.86 -0.029853
5.87 -0.027758
5.88 -0.025482
5.89 -0.023015
5.90 -0.020361
5.91 -0.017543
5.92 -0.014594
5.93 -0.011558
5.94 -0.008481
5.95 -0.005411
5.96 -0.002391
5.97 0.000539
5.98 0.003350
5.99 0.006019
6.00 0.008532
6.01 0.010886
6.02 0.013080
6.03 0.015124
6.04 0.017024
6.05 0.018785
6.06 0.020402
6.07 0.021865
6.08 0.023172
6.09 0.024335
6.10 0.025391
6.11 0.026391
6.12 0.027388
6.13 0.028430
6.14 0.029549
6.15 0.030761
6.16 0.032065
6.17 0.033453
6.18 0.034912
6.19 0.036435
6.20 0.038016
6.21 0.039651
6.22 0.041331
6.23 0.043042
6.24 0.044765
6.25 0.046476
6.26 0.048151
6.27 0.049768
6.28 0.051313
6.29 0.052768
6.30 0.054120
6.31 0.055353
6.32 0.056455
6.33 0.057424
6.34 0.058266
6.35 0.058997
6.36 0.059636
6.37 0.060197
6.38 0.060687
6.39 0.061110
6.40 0.061471
6.41 0.061777
6.42 0.062045
6.43 0.062299
6.44 0.062566
6.45 0.062872
6.46 0.063230
6.47 0.063645
6.48 0.064110
6.49 0.064613
6.50 0.065138
6.51 0.065668
6.52 0.066186
6.53 0.066669
6.54 0.067091
6.55 0.067428
6.56 0.067661
6.57 0.067785
6.58 0.067812
6.59 0.067772
6.60 0.067702
6.61 0.067635
6.62 0.067596
6.63 0.067592
6.64 0.067622
6.65 0.067677
6.66 0.067742
6.67 0.067798
6.68 0.067826
6.69 0.067806
6.70 0.067723
6.71 0.067561
6.72 0.067302
6.73 0.066922
6.74 0.066399
6.75 0.065713
6.76 0.064855
6.77 0.063824
6.78 0.062631
6.79 0.061293
6.80 0.059831
6.81 0.058262
6.82 0.056593
6.83 0.054826
6.84 0.052959
6.85 0.050986
6.86 0.048906
6.87 0.046711
6.88 0.044394
6.89 0.041948
6.90 0.039373
6.91 0.036669
6.92 0.033837
6.93 0.030873
6.94 0.027766
6.95 0.024505
6.96 0.021080
6.97 0.017486
6.98 0.013718
6.99 0.009774
7.00 0.005666
7.01 0.001431
7.02 -0.002864
7.03 -0.007121
7.04 -0.011230
7.05 -0.015081
7.06 -0.018583
7.07 -0.021670
7.08 -0.024309
7.09 -0.026491
7.10 -0.028231
7.11 -0.029565
7.12 -0.030543
7.13 -0.031217
7.14 -0.031635
7.15 -0.031838
7.16 -0.031874
7.17 -0.031798
7.18 -0.031676
7.19 -0.031566
7.20 -0.031507
7.21 -0.031524
7.22 -0.031628
7.23 -0.031825
7.24 -0.032109
7.25 -0.032469
7.26 -0.032894
7.27 -0.033372
7.28 -0.033902
7.29 -0.034494
7.30 -0.035176
7.31 -0.035986
7.32 -0.036964
7.33 -0.038132
7.34 -0.039492
7.35 -0.041028
7.36 -0.042713
7.37 -0.044522
7.38 -0.046441
7.39 -0.048471
7.40 -0.050620
7.41 -0.052901
7.42 -0.055322
7.43 -0.057887
7.44 -0.060584
7.45 -0.063396
7.46 -0.066304
7.47 -0.069294
7.48 -0.072355
7.49 -0.075473
7.50 -0.078631
7.51 -0.081800
7.52 -0.084944
7.53 -0.088020
7.54 -0.090981
7.55 -0.093788
7.56 -0.096407
7.57 -0.098818
7.58 -0.101008
7.59 -0.102971
7.60 -0.104702
7.61 -0.106196
7.62 -0.107450
7.63 -0.108471
7.64 -0.109281
7.65 -0.109919
7.66 -0.110433
7.67 -0.110871
7.68 -0.111272
7.69 -0.111667
7.70 -0.112072
7.71 -0.112495
7.72 -0.112932
7.73 -0.113373
7.74 -0.113807
7.75 -0.114226
7.76 -0.114628
7.77 -0.115014
7.78 -0.115390
7.79 -0.115771
7.80 -0.116175
7.81 -0.116624
7.82 -0.117137
7.83 -0.117717
7.84 -0.118342
7.85 -0.118967
7.86 -0.119533
7.87 -0.119991
7.88 -0.120299
7.89 -0.120426
7.90 -0.120341
7.91 -0.120015
7.92 -0.119428
7.93 -0.118568
7.94 -0.117435
7.95 -0.116030
7.96 -0.114354
7.97 -0.112405
7.98 -0.110178
7.99 -0.107676
8.00 -0.104915
8.01 -0.101936
8.02 -0.098795
8.03 -0.095550
8.04 -0.092251
8.05 -0.088934
8.06 -0.085633
8.07 -0.082385
8.08 -0.079228
8.09 -0.076208
8.10 -0.073366
8.11 -0.070739
8.12 -0.068348
8.13 -0.066196
8.14 -0.064271
8.15 -0.062558
8.16 -0.061046
8.17 -0.059735
8.18 -0.058633
8.19 -0.057750
8.20 -0.057098
8.21 -0.056688
8.22 -0.056525
8.23 -0.056616
8.24 -0.056968
8.25 -0.057586
8.26 -0.058471
8.27 -0.059624
8.28 -0.061032
8.29 -0.062671
8.30 -0.064500
8.31 -0.066468
8.32 -0.068520
8.33 -0.070597
8.34 -0.072644
8.35 -0.074610
8.36 -0.076455
8.37 -0.078144
8.38 -0.079647
8.39 -0.080936
8.40 -0.081995
8.41 -0.082820
8.42 -0.083420
8.43 -0.083811
8.44 -0.084009
8.45 -0.084025
8.46 -0.083860
8.47 -0.083504
8.48 -0.082934
8.49 -0.082125
8.50 -0.081057
8.51 -0.079727
8.52 -0.078149
8.53 -0.076347
8.54 -0.074347
8.55 -0.072170
8.56 -0.069836
8.57 -0.067363
8.58 -0.064774
8.59 -0.062090
8.60 -0.059335
8.61 -0.056528
8.62 -0.053688
8.63 -0.050836
8.64 -0.047995
8.65 -0.045197
8.66 -0.042482
8.67 -0.039898
8.68 -0.037483
8.69 -0.035268
8.70 -0.033267
8.71 -0.031491
8.72 -0.029943
8.73 -0.028622
8.74 -0.027516
8.75 -0.026605
8.76 -0.025863
8.77 -0.025257
8.78 -0.024750
8.79 -0.024307
8.80 -0.023896
8.81 -0.023491
8.82 -0.023072
8.83 -0.022626
8.84 -0.022158
8.85 -0.021684
8.86 -0.021230
8.87 -0.020822
8.88 -0.020478
8.89 -0.020206
8.90 -0.020007
8.91 -0.019875
8.92 -0.019796
8.93 -0.019752
8.94 -0.019725
8.95 -0.019700
8.96 -0.019670
8.97 -0.019637
8.98 -0.019608
8.99 -0.019601
9.00 -0.019640
9.01 -0.019749
9.02 -0.019947
9.03 -0.020240
9.04 -0.020626
9.05 -0.021096
9.06 -0.021628
9.07 -0.022191
9.08 -0.022746
9.09 -0.023253
9.10 -0.023676
9.11 -0.023984
9.12 -0.024148
9.13 -0.024143
9.14 -0.023948
9.15 -0.023555
9.16 -0.022968
9.17 -0.022207
9.18 -0.021296
9.19 -0.020270
9.20 -0.019171
9.21 -0.018044
9.22 -0.016928
9.23 -0.015852
9.24 -0.014829
9.25 -0.013856
9.26 -0.012922
9.27 -0.011997
9.28 -0.011040
9.29 -0.009997
9.30 -0.008809
9.31 -0.007425
9.32 -0.005806
9.33 -0.003928
9.34 -0.001780
9.35 0.000632
9.36 0.003293
9.37 0.006187
9.38 0.009292
9.39 0.012584
9.40 0.016026
9.41 0.019574
9.42 0.023182
9.43 0.026811
9.44 0.030434
9.45 0.034024
9.46 0.037545
9.47 0.040957
9.48 0.044216
9.49 0.047287
9.50 0.050136
9.51 0.052735
9.52 0.055054
9.53 0.057071
9.54 0.058782
9.55 0.060196
9.56 0.061331
9.57 0.062209
9.58 0.062854
9.59 0.063292
9.60 0.063549
9.61 0.063652
9.62 0.063632
9.63 0.063521
9.64 0.063354
9.65 0.063167
9.66 0.062995
9.67 0.062870
9.68 0.062814
9.69 0.062834
9.70 0.062929
9.71 0.063091
9.72 0.063322
9.73 0.063629
9.74 0.064024
9.75 0.064517
9.76 0.065109
9.77 0.065790
9.78 0.066539
9.79 0.067325
9.80 0.068121
9.81 0.068913
9.82 0.069702
9.83 0.070502
9.84 0.071332
9.85 0.072215
9.86 0.073177
9.87 0.074249
9.88 0.075453
9.89 0.076794
9.90 0.078251
9.91 0.079784
9.92 0.081343
9.93 0.082878
9.94 0.084347
9.95 0.085718
9.96 0.086970
9.97 0.088091
9.98 0.089079
9.99 0.089940
10.00 0.090686
10.01 0.091340
10.02 0.091929
10.03 0.092477
10.04 0.093005
10.05 0.093522
10.06 0.094023
10.07 0.094494
10.08 0.094912
10.09 0.095248
10.10 0.095468
10.11 0.095538
10.12 0.095423
10.13 0.095094
10.14 0.094523
10.15 0.093688
10.16 0.092571
10.17 0.091162
10.18 0.089470
10.19 0.087527
10.20 0.085400
10.21 0.083181
10.22 0.080971
10.23 0.078862
10.24 0.076918
10.25 0.075178
10.26 0.073661
10.27 0.072376
10.28 0.071321
10.29 0.070481
10.30 0.069828
10.31 0.069319
10.32 0.068906
10.33 0.068553
10.34 0.068228
10.35 0.067906
10.36 0.067561
10.37 0.067158
10.38 0.066668
10.39 0.066070
10.40 0.065358
10.41 0.064535
10.42 0.063605
10.43 0.062576
10.44 0.061452
10.45 0.060240
10.46 0.058946
10.47 0.057586
10.48 0.056184
10.49 0.054770
10.50 0.053371
10.51 0.052004
10.52 0.050685
10.53 0.049428
10.54 0.048250
10.55 0.047168
10.56 0.046198
10.57 0.045347
10.58 0.044620
10.59 0.044009
10.60 0.043502
10.61 0.043077
10.62 0.042709
10.63 0.042373
10.64 0.042046
10.65 0.041705
10.66 0.041335
10.67 0.040929
10.68 0.040501
10.69 0.040074
10.70 0.039680
10.71 0.039351
10.72 0.039115
10.73 0.038996
10.74 0.039016
10.75 0.039198
10.76 0.039562
10.77 0.040131
10.78 0.040919
10.79 0.041934
10.80 0.043174
10.81 0.044619
10.82 0.046235
10.83 0.047984
10.84 0.049824
10.85 0.051721
10.86 0.053642
10.87 0.055563
10.88 0.057464
10.89 0.059332
10.90 0.061160
10.91 0.062954
10.92 0.064723
10.93 0.066478
10.94 0.068220
10.95 0.069936
10.96 0.071603
10.97 0.073199
10.98 0.074708
10.99 0.076120
11.00 0.077426
11.01 0.078613
11.02 0.079662
11.03 0.080555
11.04 0.081277
11.05 0.081820
11.06 0.082180
11.07 0.082359
11.08 0.082357
11.09 0.082179
11.10 0.081833
11.11 0.081331
11.12 0.080685
11.13 0.079910
11.14 0.079014
11.15 0.078002
11.16 0.076874
11.17 0.075631
11.18 0.074276
11.19 0.072812
11.20 0.071250
11.21 0.069607
11.22 0.067913
11.23 0.066202
11.24 0.064511
11.25 0.062867
11.26 0.061298
11.27 0.059828
11.28 0.058482
11.29 0.057287
11.30 0.056268
11.31 0.055450
11.32 0.054851
11.33 0.054470
11.34 0.054277
11.35 0.054223
11.36 0.054257
11.37 0.054354
11.38 0.054512
11.39 0.054738
11.40 0.055037
11.41 0.055397
11.42 0.055799
11.43 0.056220
11.44 0.056639
11.45 0.057042
11.46 0.057420
11.47 0.057770
11.48 0.058091
11.49 0.058377
11.50 0.058614
11.51 0.058788
11.52 0.058892
11.53 0.058927
11.54 0.058900
11.55 0.058821
11.56 0.058703
11.57 0.058560
11.58 0.058404
11.59 0.058248
11.60 0.058096
11.61 0.057945
11.62 0.057794
11.63 0.057642
11.64 0.057488
11.65 0.057327
11.66 0.057142
11.67 0.056908
11.68 0.056593
11.69 0.056166
11.70 0.055604
11.71 0.054893
11.72 0.054032
11.73 0.053028
11.74 0.051890
11.75 0.050618
11.76 0.049211
11.77 0.047667
11.78 0.045989
11.79 0.044188
11.80 0.042270
11.81 0.040236
11.82 0.038077
11.83 0.035785
11.84 0.033353
11.85 0.030785
11.86 0.028083
11.87 0.025256
11.88 0.022311
11.89 0.019261
11.90 0.016125
11.91 0.012927
11.92 0.009688
11.93 0.006424
11.94 0.003144
11.95 -0.000145
11.96 -0.003433
11.97 -0.006703
11.98 -0.009934
11.99 -0.013104
12.00 -0.016197
12.01 -0.019202
12.02 -0.022110
12.03 -0.024913
12.04 -0.027606
12.05 -0.030190
12.06 -0.032670
12.07 -0.035056
12.08 -0.037357
12.09 -0.039578
12.10 -0.041721
12.11 -0.043789
12.12 -0.045786
12.13 -0.047727
12.14 -0.049627
12.15 -0.051503
12.16 -0.053361
12.17 -0.055202
12.18 -0.057017
12.19 -0.058798
12.20 -0.060536
12.21 -0.062226
12.22 -0.063866
12.23 -0.065452
12.24 -0.066981
12.25 -0.068445
12.26 -0.069836
12.27 -0.071149
12.28 -0.072383
12.29 -0.073542
12.30 -0.074631
12.31 -0.075655
12.32 -0.076617
12.33 -0.077518
12.34 -0.078355
12.35 -0.079125
12.36 -0.079824
12.37 -0.080446
12.38 -0.080988
12.39 -0.081449
12.40 -0.081829
12.41 -0.082133
12.42 -0.082364
12.43 -0.082526
12.44 -0.082621
12.45 -0.082654
12.46 -0.082631
12.47 -0.082570
12.48 -0.082492
12.49 -0.082420
12.50 -0.082378
12.51 -0.082386
12.52 -0.082456
12.53 -0.082598
12.54 -0.082817
12.55 -0.083122
12.56 -0.083520
12.57 -0.084015
12.58 -0.084598
12.59 -0.085250
12.60 -0.085947
12.61 -0.086673
12.62 -0.087417
12.63 -0.088178
12.64 -0.088954
12.65 -0.089740
12.66 -0.090524
12.67 -0.091289
12.68 -0.092018
12.69 -0.092693
12.70 -0.093289
12.71 -0.093785
12.72 -0.094165
12.73 -0.094426
12.74 -0.094578
12.75 -0.094636
12.76 -0.094616
12.77 -0.094534
12.78 -0.094403
12.79 -0.094241
12.80 -0.094064
12.81 -0.093887
12.82 -0.093720
12.83 -0.093567
12.84 -0.093426
12.85 -0.093288
12.86 -0.093140
12.87 -0.092967
12.88 -0.092764
12.89 -0.092533
12.90 -0.092288
12.91 -0.092042
12.92 -0.091803
12.93 -0.091572
12.94 -0.091351
12.95 -0.091144
12.96 -0.090951
12.97 -0.090762
12.98 -0.090558
12.99 -0.090317
13.00 -0.090025
13.01 -0.089685
13.02 -0.089308
13.03 -0.088906
13.04 -0.088486
13.05 -0.088048
13.06 -0.087590
13.07 -0.087116
13.08 -0.086633
13.09 -0.086150
13.10 -0.085666
13.11 -0.085178
13.12 -0.084676
13.13 -0.084150
13.14 -0.083591
13.15 -0.082993
13.16 -0.082345
13.17 -0.081639
13.18 -0.080867
13.19 -0.080022
13.20 -0.079104
13.21 -0.078116
13.22 -0.077066
13.23 -0.075965
13.24 -0.074825
13.25 -0.073655
13.26 -0.072461
13.27 -0.071249
13.28 -0.070022
13.29 -0.068780
13.30 -0.067522
13.31 -0.066245
13.32 -0.064953
13.33 -0.063651
13.34 -0.062353
13.35 -0.061069
13.36 -0.059812
13.37 -0.058589
13.38 -0.057401
13.39 -0.056247
13.40 -0.055122
13.41 -0.054021
13.42 -0.052936
13.43 -0.051856
13.44 -0.050770
13.45 -0.049665
13.46 -0.048530
13.47 -0.047362
13.48 -0.046156
13.49 -0.044907
